Frequency Hz,Permittivity,Elec. Cond. (S/m)
100000000000,8.298812191,63.36517103
119800000000,7.406931326,65.90961589
139600000000,6.802285383,67.90505291
159400000000,6.369479111,69.53697814
179200000000,6.046492607,70.91342618
199000000000,5.797404743,72.10186856
218800000000,5.600141067,73.14683624
238600000000,5.440469656,74.07905853
258400000000,5.308844219,74.92053051
278200000000,5.198645163,75.68748275
298000000000,5.105150831,76.39220429
317800000000,5.024910492,77.04420654
337600000000,4.955348415,77.65099195
357400000000,4.894506053,78.21857676
377200000000,4.840869574,78.75185573
397000000000,4.793251717,79.25486241
416800000000,4.750709106,79.73095869
436600000000,4.712483296,80.18297519
456400000000,4.677958,80.61331718
476200000000,4.646627576,81.02404534
496000000000,4.618073484,81.41693846
515800000000,4.591946467,81.79354249
535600000000,4.567952901,82.15520941
555400000000,4.545844233,82.50312837
575200000000,4.525408723,82.83835082
595000000000,4.506464919,83.161811
614800000000,4.48885647,83.47434274
634600000000,4.472447962,83.77669339
654400000000,4.457121551,84.06953537
674200000000,4.442774222,84.35347592
694000000000,4.429315539,84.62906527
713800000000,4.4166658,84.89680358
733600000000,4.404754496,85.15714684
753400000000,4.39351903,85.41051198
773200000000,4.382903646,85.6572812
793000000000,4.372858523,85.89780572
812800000000,4.36333901,86.13240908
832600000000,4.354304977,86.36139001
852400000000,4.345720257,86.58502486
872200000000,4.337552175,86.80356982
892000000000,4.329771133,87.01726287
911800000000,4.322350262,87.22632542
931600000000,4.315265116,87.43096386
951400000000,4.308493403,87.63137091
971200000000,4.302014755,87.82772675
991000000000,4.295810528,88.02020015
1010800000000,4.28986362,88.2089494
1030600000000,4.284158318,88.39412313
1050400000000,4.278680161,88.57586116
1070200000000,4.273415815,88.75429511
1090000000000,4.268352968,88.92954908
1109800000000,4.263480235,89.10174021
1129600000000,4.258787069,89.27097916
1149400000000,4.25426369,89.43737064
1169200000000,4.249901013,89.60101379
1189000000000,4.245690589,89.76200257
1208800000000,4.241624552,89.92042614
1228600000000,4.237695567,90.07636918
1248400000000,4.233896788,90.22991216
1268200000000,4.230221815,90.38113166
1288000000000,4.226664662,90.53010058
1307800000000,4.223219724,90.67688839
1327600000000,4.219881744,90.82156135
1347400000000,4.216645789,90.96418268
1367200000000,4.213507223,91.10481279
1387000000000,4.21046169,91.24350939
1406800000000,4.207505088,91.38032771
1426600000000,4.204633553,91.51532057
1446400000000,4.201843441,91.64853859
1466200000000,4.199131315,91.78003026
1486000000000,4.196493927,91.9098421
1505800000000,4.19392821,92.03801871
1525600000000,4.191431259,92.16460295
1545400000000,4.189000327,92.28963596
1565200000000,4.18663281,92.41315729
1585000000000,4.184326239,92.53520496
1604800000000,4.182078273,92.65581558
1624600000000,4.17988669,92.77502437
1644400000000,4.177749376,92.89286525
1664200000000,4.175664325,93.0093709
1684000000000,4.173629628,93.12457283
1703800000000,4.171643466,93.23850145
1723600000000,4.169704108,93.35118605
1743400000000,4.167809907,93.46265496
1763200000000,4.165959288,93.5729355
1783000000000,4.164150751,93.68205409
1802800000000,4.162382865,93.79003623
1822600000000,4.160654262,93.89690662
1842400000000,4.158963635,94.00268911
1862200000000,4.157309735,94.10740681
1882000000000,4.155691366,94.21108206
1901800000000,4.154107384,94.31373652
1921600000000,4.152556696,94.41539116
1941400000000,4.151038252,94.51606629
1961200000000,4.149551048,94.61578161
1981000000000,4.148094118,94.71455621
2000800000000,4.14666654,94.81240863
2020600000000,4.145267426,94.90935683
2040400000000,4.143895925,95.00541826
2060200000000,4.142551218,95.10060986
2080000000000,4.141232522,95.19494807
2099800000000,4.139939079,95.28844886
2119600000000,4.138670165,95.38112778
2139400000000,4.13742508,95.47299989
2159200000000,4.136203153,95.56407989
2179000000000,4.135003737,95.65438203
2198800000000,4.133826208,95.7439202
2218600000000,4.132669967,95.83270791
2238400000000,4.131534435,95.92075829
2258200000000,4.130419055,96.00808415
2278000000000,4.129323289,96.09469794
2297800000000,4.128246619,96.18061181
2317600000000,4.127188544,96.26583757
2337400000000,4.126148581,96.35038676
2357200000000,4.125126264,96.43427059
2377000000000,4.124121143,96.51750002
2396800000000,4.123132782,96.60008573
2416600000000,4.122160761,96.68203813
2436400000000,4.121204674,96.76336737
2456200000000,4.120264127,96.84408337
2476000000000,4.11933874,96.92419579
2495800000000,4.118428145,97.00371409
2515600000000,4.117531986,97.08264748
2535400000000,4.116649919,97.16100495
2555200000000,4.11578161,97.23879531
2575000000000,4.114926736,97.31602714
2594800000000,4.114084983,97.39270884
2614600000000,4.113256049,97.4688486
2634400000000,4.112439639,97.54445444
2654200000000,4.111635468,97.6195342
2674000000000,4.110843259,97.69409555
2693800000000,4.110062745,97.76814596
2713600000000,4.109293665,97.84169278
2733400000000,4.108535766,97.91474318
2753200000000,4.107788805,97.98730416
2773000000000,4.107052542,98.0593826
2792800000000,4.106326746,98.13098521
2812600000000,4.105611194,98.20211858
2832400000000,4.104905667,98.27278914
2852200000000,4.104209953,98.34300319
2872000000000,4.103523847,98.41276693
2891800000000,4.102847148,98.48208638
2911600000000,4.102179661,98.55096749
2931400000000,4.101521198,98.61941606
2951200000000,4.100871575,98.68743777
2971000000000,4.100230612,98.75503821
2990800000000,4.099598135,98.82222284
3010600000000,4.098973975,98.88899702
3030400000000,4.098357966,98.955366
3050200000000,4.097749948,99.02133494
3070000000000,4.097149764,99.08690888
3089800000000,4.096557262,99.15209279
3109600000000,4.095972293,99.21689153
3129400000000,4.095394713,99.28130986
3149200000000,4.094824382,99.34535247
3169000000000,4.09426116,99.40902395
3188800000000,4.093704916,99.4723288
3208600000000,4.093155517,99.53527146
3228400000000,4.092612837,99.59785627
3248200000000,4.092076752,99.66008749
3268000000000,4.09154714,99.72196931
3287800000000,4.091023884,99.78350584
3307600000000,4.090506869,99.84470112
3327400000000,4.089995981,99.90555913
3347200000000,4.089491111,99.96608375
3367000000000,4.088992152,100.0262788
3386800000000,4.088498999,100.0861481
3406600000000,4.088011551,100.1456953
3426400000000,4.087529707,100.204924
3446200000000,4.08705337,100.2638378
3466000000000,4.086582445,100.3224403
3485800000000,4.086116839,100.3807348
3505600000000,4.085656461,100.4387248
3525400000000,4.085201223,100.4964137
3545200000000,4.084751037,100.5538046
3565000000000,4.084305819,100.6109008
3584800000000,4.083865486,100.6677055
3604600000000,4.083429957,100.7242218
3624400000000,4.082999152,100.7804528
3644200000000,4.082572995,100.8364015
3664000000000,4.082151409,100.8920708
3683800000000,4.081734319,100.9474638
3703600000000,4.081321655,101.0025833
3723400000000,4.080913344,101.057432
3743200000000,4.080509316,101.1120129
3763000000000,4.080109505,101.1663286
3782800000000,4.079713844,101.2203819
3802600000000,4.079322266,101.2741754
3822400000000,4.07893471,101.3277117
3842200000000,4.078551111,101.3809935
3862000000000,4.078171409,101.4340232
3881800000000,4.077795544,101.4868033
3901600000000,4.077423457,101.5393364
3921400000000,4.077055091,101.5916248
3941200000000,4.076690389,101.643671
3961000000000,4.076329297,101.6954772
3980800000000,4.07597176,101.7470459
4000600000000,4.075617725,101.7983793
4020400000000,4.075267141,101.8494796
4040200000000,4.074919956,101.9003491
4060000000000,4.07457612,101.95099
4079800000000,4.074235585,102.0014044
4099600000000,4.073898302,102.0515945
4119400000000,4.073564225,102.1015623
4139200000000,4.073233307,102.1513099
4159000000000,4.072905504,102.2008394
4178800000000,4.07258077,102.2501527
4198600000000,4.072259062,102.2992518
4218400000000,4.071940338,102.3481388
4238200000000,4.071624556,102.3968155
4258000000000,4.071311674,102.4452838
4277800000000,4.071001652,102.4935455
4297600000000,4.070694451,102.5416027
4317400000000,4.070390031,102.5894569
4337200000000,4.070088355,102.6371102
4357000000000,4.069789385,102.6845641
4376800000000,4.069493084,102.7318206
4396600000000,4.069199416,102.7788812
4416400000000,4.068908346,102.8257478
4436200000000,4.068619839,102.8724219
4456000000000,4.068333861,102.9189053
4475800000000,4.068050377,102.9651996
4495600000000,4.067769356,103.0113064
4515400000000,4.067490765,103.0572273
4535200000000,4.067214571,103.1029639
4555000000000,4.066940744,103.1485177
4574800000000,4.066669253,103.1938903
4594600000000,4.066400067,103.2390831
4614400000000,4.066133158,103.2840977
4634200000000,4.065868495,103.3289356
4654000000000,4.065606051,103.3735982
4673800000000,4.065345796,103.4180869
4693600000000,4.065087704,103.4624032
4713400000000,4.064831747,103.5065484
4733200000000,4.064577898,103.550524
4753000000000,4.064326131,103.5943314
4772800000000,4.06407642,103.6379718
4792600000000,4.06382874,103.6814466
4812400000000,4.063583065,103.7247572
4832200000000,4.063339371,103.7679048
4852000000000,4.063097634,103.8108908
4871800000000,4.06285783,103.8537163
4891600000000,4.062619935,103.8963827
4911400000000,4.062383927,103.9388912
4931200000000,4.062149782,103.9812431
4951000000000,4.061917479,104.0234394
4970800000000,4.061686995,104.0654816
4990600000000,4.061458309,104.1073706
5010400000000,4.0612314,104.1491078
5030200000000,4.061006246,104.1906942
5050000000000,4.060782828,104.232131
5069800000000,4.060561124,104.2734193
5089600000000,4.060341115,104.3145603
5109400000000,4.060122781,104.3555551
5129200000000,4.059906103,104.3964046
5149000000000,4.059691061,104.4371102
5168800000000,4.059477638,104.4776727
5188600000000,4.059265814,104.5180932
5208400000000,4.059055572,104.5583729
5228200000000,4.058846893,104.5985127
5248000000000,4.058639759,104.6385136
5267800000000,4.058434155,104.6783767
5287600000000,4.058230061,104.7181029
5307400000000,4.058027462,104.7576933
5327200000000,4.057826341,104.7971488
5347000000000,4.057626681,104.8364704
5366800000000,4.057428467,104.875659
5386600000000,4.057231682,104.9147157
5406400000000,4.057036311,104.9536412
5426200000000,4.056842339,104.9924366
5446000000000,4.056649749,105.0311027
5465800000000,4.056458529,105.0696406
5485600000000,4.056268661,105.1080509
5505400000000,4.056080133,105.1463347
5525200000000,4.055892929,105.1844929
5545000000000,4.055707036,105.2225262
5564800000000,4.05552244,105.2604356
5584600000000,4.055339126,105.2982219
5604400000000,4.055157082,105.3358859
5624200000000,4.054976294,105.3734285
5644000000000,4.054796748,105.4108505
5663800000000,4.054618433,105.4481527
5683600000000,4.054441335,105.4853359
5703400000000,4.054265441,105.5224009
5723200000000,4.054090739,105.5593485
5743000000000,4.053917218,105.5961795
5762800000000,4.053744863,105.6328947
5782600000000,4.053573665,105.6694948
5802400000000,4.053403611,105.7059806
5822200000000,4.053234689,105.7423528
5842000000000,4.053066888,105.7786122
5861800000000,4.052900197,105.8147595
5881600000000,4.052734604,105.8507954
5901400000000,4.052570099,105.8867207
5921200000000,4.05240667,105.9225361
5941000000000,4.052244308,105.9582422
5960800000000,4.052083001,105.9938399
5980600000000,4.051922739,106.0293297
6000400000000,4.051763512,106.0647124
6020200000000,4.051605309,106.0999886
6040000000000,4.051448121,106.135159
6059800000000,4.051291938,106.1702244
6079600000000,4.051136749,106.2051852
6099400000000,4.050982546,106.2400423
6119200000000,4.050829319,106.2747962
6139000000000,4.050677059,106.3094477
6158800000000,4.050525755,106.3439972
6178600000000,4.0503754,106.3784455
6198400000000,4.050225983,106.4127932
6218200000000,4.050077497,106.4470409
6238000000000,4.049929932,106.4811892
6257800000000,4.04978328,106.5152387
6277600000000,4.049637532,106.54919
6297400000000,4.049492679,106.5830437
6317200000000,4.049348714,106.6168005
6337000000000,4.049205628,106.6504608
6356800000000,4.049063413,106.6840253
6376600000000,4.04892206,106.7174946
6396400000000,4.048781563,106.7508691
6416200000000,4.048641912,106.7841495
6436000000000,4.048503101,106.8173364
6455800000000,4.048365121,106.8504302
6475600000000,4.048227965,106.8834316
6495400000000,4.048091626,106.9163411
6515200000000,4.047956096,106.9491591
6535000000000,4.047821368,106.9818863
6554800000000,4.047687434,107.0145232
6574600000000,4.047554288,107.0470703
6594400000000,4.047421923,107.0795282
6614200000000,4.047290331,107.1118972
6634000000000,4.047159506,107.144178
6653800000000,4.04702944,107.1763711
6673600000000,4.046900128,107.2084769
6693400000000,4.046771563,107.240496
6713200000000,4.046643737,107.2724288
6733000000000,4.046516646,107.3042759
6752800000000,4.046390281,107.3360377
6772600000000,4.046264637,107.3677146
6792400000000,4.046139708,107.3993073
6812200000000,4.046015487,107.4308161
6832000000000,4.045891968,107.4622415
6851800000000,4.045769146,107.493584
6871600000000,4.045647014,107.5248441
6891400000000,4.045525566,107.5560221
6911200000000,4.045404797,107.5871186
6931000000000,4.045284701,107.618134
6950800000000,4.045165272,107.6490687
6970600000000,4.045046505,107.6799233
6990400000000,4.044928393,107.710698
7010200000000,4.044810932,107.7413934
7030000000000,4.044694116,107.7720099
7049800000000,4.04457794,107.8025479
7069600000000,4.044462397,107.8330079
7089400000000,4.044347484,107.8633902
7109200000000,4.044233195,107.8936953
7129000000000,4.044119524,107.9239236
7148800000000,4.044006467,107.9540754
7168600000000,4.043894018,107.9841513
7188400000000,4.043782173,108.0141516
7208200000000,4.043670927,108.0440767
7228000000000,4.043560275,108.073927
7247800000000,4.043450211,108.1037028
7267600000000,4.043340732,108.1334047
7287400000000,4.043231832,108.163033
7307200000000,4.043123507,108.192588
7327000000000,4.043015752,108.2220701
7346800000000,4.042908563,108.2514798
7366600000000,4.042801934,108.2808173
7386400000000,4.042695863,108.3100831
7406200000000,4.042590344,108.3392776
7426000000000,4.042485373,108.368401
7445800000000,4.042380945,108.3974539
7465600000000,4.042277057,108.4264364
7485400000000,4.042173703,108.455349
7505200000000,4.042070881,108.4841921
7525000000000,4.041968585,108.5129659
7544800000000,4.041866812,108.5416709
7564600000000,4.041765557,108.5703073
7584400000000,4.041664817,108.5988756
7604200000000,4.041564588,108.6273761
7624000000000,4.041464865,108.6558091
7643800000000,4.041365645,108.6841749
7663600000000,4.041266924,108.7124739
7683400000000,4.041168697,108.7407064
7703200000000,4.041070963,108.7688728
7723000000000,4.040973715,108.7969733
7742800000000,4.040876952,108.8250083
7762600000000,4.040780669,108.8529781
7782400000000,4.040684862,108.880883
7802200000000,4.040589528,108.9087234
7822000000000,4.040494664,108.9364996
7841800000000,4.040400266,108.9642118
7861600000000,4.04030633,108.9918604
7881400000000,4.040212853,109.0194457
7901200000000,4.040119832,109.046968
7921000000000,4.040027263,109.0744276
7940800000000,4.039935143,109.1018248
7960600000000,4.039843469,109.1291599
7980400000000,4.039752236,109.1564332
8000200000000,4.039661443,109.183645
8020000000000,4.039571086,109.2107955
8039800000000,4.039481161,109.2378851
8059600000000,4.039391666,109.2649141
8079400000000,4.039302597,109.2918827
8099200000000,4.039213952,109.3187913
8119000000000,4.039125727,109.34564
8138800000000,4.039037918,109.3724293
8158600000000,4.038950525,109.3991593
8178400000000,4.038863542,109.4258304
8198200000000,4.038776968,109.4524427
8218000000000,4.038690799,109.4789967
8237800000000,4.038605032,109.5054925
8257600000000,4.038519666,109.5319305
8277400000000,4.038434696,109.5583108
8297200000000,4.03835012,109.5846338
8317000000000,4.038265935,109.6108997
8336800000000,4.038182139,109.6371088
8356600000000,4.038098728,109.6632613
8376400000000,4.038015701,109.6893575
8396200000000,4.037933054,109.7153977
8416000000000,4.037850784,109.7413821
8435800000000,4.03776889,109.7673109
8455600000000,4.037687368,109.7931844
8475400000000,4.037606216,109.8190029
8495200000000,4.037525432,109.8447666
8515000000000,4.037445012,109.8704757
8534800000000,4.037364955,109.8961305
8554600000000,4.037285257,109.9217313
8574400000000,4.037205917,109.9472782
8594200000000,4.037126932,109.9727715
8614000000000,4.037048299,109.9982115
8633800000000,4.036970017,110.0235983
8653600000000,4.036892082,110.0489323
8673400000000,4.036814493,110.0742136
8693200000000,4.036737246,110.0994424
8713000000000,4.036660341,110.1246191
8732800000000,4.036583774,110.1497438
8752600000000,4.036507543,110.1748168
8772400000000,4.036431647,110.1998383
8792200000000,4.036356082,110.2248084
8812000000000,4.036280846,110.2497275
8831800000000,4.036205938,110.2745957
8851600000000,4.036131355,110.2994133
8871400000000,4.036057096,110.3241805
8891200000000,4.035983157,110.3488975
8911000000000,4.035909537,110.3735644
8930800000000,4.035836233,110.3981816
8950600000000,4.035763245,110.4227493
8970400000000,4.035690569,110.4472676
8990200000000,4.035618203,110.4717367
9010000000000,4.035546146,110.4961569
9029800000000,4.035474396,110.5205284
9049600000000,4.03540295,110.5448513
9069400000000,4.035331806,110.5691259
9089200000000,4.035260964,110.5933524
9109000000000,4.03519042,110.617531
9128800000000,4.035120173,110.6416619
9148600000000,4.03505022,110.6657452
9168400000000,4.034980561,110.6897812
9188200000000,4.034911193,110.7137701
9208000000000,4.034842114,110.737712
9227800000000,4.034773323,110.7616072
9247600000000,4.034704817,110.7854559
9267400000000,4.034636595,110.8092582
9287200000000,4.034568656,110.8330143
9307000000000,4.034500996,110.8567244
9326800000000,4.034433615,110.8803888
9346600000000,4.034366511,110.9040075
9366400000000,4.034299681,110.9275809
9386200000000,4.034233126,110.9511089
9406000000000,4.034166841,110.974592
9425800000000,4.034100827,110.9980301
9445600000000,4.034035081,111.0214236
9465400000000,4.033969601,111.0447725
9485200000000,4.033904387,111.0680772
9505000000000,4.033839435,111.0913376
9524800000000,4.033774746,111.1145541
9544600000000,4.033710317,111.1377268
9564400000000,4.033646146,111.1608558
9584200000000,4.033582232,111.1839414
9604000000000,4.033518573,111.2069837
9623800000000,4.033455168,111.2299828
9643600000000,4.033392016,111.2529391
9663400000000,4.033329114,111.2758525
9683200000000,4.033266462,111.2987233
9703000000000,4.033204057,111.3215517
9722800000000,4.033141898,111.3443379
9742600000000,4.033079985,111.3670819
9762400000000,4.033018314,111.3897839
9782200000000,4.032956886,111.4124442
9802000000000,4.032895698,111.4350629
9821800000000,4.032834748,111.45764
9841600000000,4.032774037,111.4801759
9861400000000,4.032713561,111.5026707
9881200000000,4.03265332,111.5251244
9901000000000,4.032593313,111.5475374
9920800000000,4.032533537,111.5699096
9940600000000,4.032473993,111.5922414
9960400000000,4.032414677,111.6145328
9980200000000,4.032355589,111.6367839
10000000000000,4.032296728,111.658995